time,theta
0,0.01,-1.59638e-05
0.005,0.00999992,-3.18476e-05
0.01,0.00999976,-4.76517e-05
0.015,0.00999952,-6.33765e-05
0.02,0.00999921,-7.90221e-05
0.025,0.00999881,-9.45889e-05
0.03,0.00999834,-0.000110077
0.035,0.00999779,-0.000125487
0.04,0.00999716,-0.000140819
0.045,0.00999646,-0.000156073
0.05,0.00999568,-0.000171249
0.055,0.00999482,-0.000186348
0.06,0.00999389,-0.000201371
0.065,0.00999288,-0.000216316
0.07,0.0099918,-0.000231185
0.075,0.00999064,-0.000245978
0.08,0.00998941,-0.000260695
0.085,0.00998811,-0.000275337
0.09,0.00998673,-0.000289903
0.095,0.00998528,-0.000304393
0.1,0.00998376,-0.000318809
0.105,0.00998217,-0.00033315
0.11,0.0099805,-0.000347417
0.115,0.00997876,-0.00036161
0.12,0.00997696,-0.000375729
0.125,0.00997508,-0.000389774
0.13,0.00997313,-0.000403746
0.135,0.00997111,-0.000417645
0.14,0.00996902,-0.000431471
0.145,0.00996686,-0.000445225
0.15,0.00996464,-0.000458906
0.155,0.00996234,-0.000472515
0.16,0.00995998,-0.000486053
0.165,0.00995755,-0.000499518
0.17,0.00995505,-0.000512913
0.175,0.00995249,-0.000526236
0.18,0.00994986,-0.000539489
0.185,0.00994716,-0.000552671
0.19,0.0099444,-0.000565782
0.195,0.00994157,-0.000578824
0.2,0.00993867,-0.000591796
0.205,0.00993572,-0.000604698
0.21,0.00993269,-0.000617531
0.215,0.0099296,-0.000630294
0.22,0.00992645,-0.000642989
0.225,0.00992324,-0.000655616
0.23,0.00991996,-0.000668173
0.235,0.00991662,-0.000680663
0.24,0.00991322,-0.000693085
0.245,0.00990975,-0.000705439
0.25,0.00990622,-0.000717726
0.255,0.00990263,-0.000729946
0.26,0.00989898,-0.000742099
0.265,0.00989527,-0.000754185
0.27,0.0098915,-0.000766205
0.275,0.00988767,-0.000778158
0.28,0.00988378,-0.000790045
0.285,0.00987983,-0.000801867
0.29,0.00987582,-0.000813623
0.295,0.00987175,-0.000825314
0.3,0.00986763,-0.00083694
0.305,0.00986344,-0.000848501
0.31,0.0098592,-0.000859998
0.315,0.0098549,-0.00087143
0.32,0.00985054,-0.000882798
0.325,0.00984613,-0.000894102
0.33,0.00984166,-0.000905343
0.335,0.00983713,-0.00091652
0.34,0.00983255,-0.000927633
0.345,0.00982791,-0.000938684
0.35,0.00982322,-0.000949672
0.355,0.00981847,-0.000960598
0.36,0.00981367,-0.000971461
0.365,0.00980881,-0.000982263
0.37,0.0098039,-0.000993002
0.375,0.00979893,-0.00100368
0.38,0.00979391,-0.0010143
0.385,0.00978884,-0.00102485
0.39,0.00978372,-0.00103535
0.395,0.00977854,-0.00104578
0.4,0.00977331,-0.00105615
0.405,0.00976803,-0.00106646
0.41,0.0097627,-0.00107672
0.415,0.00975732,-0.00108691
0.42,0.00975188,-0.00109704
0.425,0.0097464,-0.00110712
0.43,0.00974086,-0.00111713
0.435,0.00973527,-0.00112709
0.44,0.00972964,-0.00113698
0.445,0.00972395,-0.00114682
0.45,0.00971822,-0.0011566
0.455,0.00971244,-0.00116632
0.46,0.00970661,-0.00117599
0.465,0.00970073,-0.00118559
0.47,0.0096948,-0.00119514
0.475,0.00968882,-0.00120463
0.48,0.0096828,-0.00121407
0.485,0.00967673,-0.00122344
0.49,0.00967061,-0.00123277
0.495,0.00966445,-0.00124203
0.5,0.00965824,-0.00125124
0.505,0.00965198,-0.00126039
0.51,0.00964568,-0.00126949
0.515,0.00963933,-0.00127853
0.52,0.00963294,-0.00128751
0.525,0.0096265,-0.00129644
0.53,0.00962002,-0.00130532
0.535,0.00961349,-0.00131414
0.54,0.00960692,-0.0013229
0.545,0.00960031,-0.00133161
0.55,0.00959365,-0.00134027
0.555,0.00958695,-0.00134887
0.56,0.0095802,-0.00135742
0.565,0.00957342,-0.00136592
0.57,0.00956659,-0.00137436
0.575,0.00955972,-0.00138275
0.58,0.0095528,-0.00139109
0.585,0.00954585,-0.00139937
0.59,0.00953885,-0.0014076
0.595,0.00953181,-0.00141578
0.6,0.00952473,-0.0014239
0.605,0.00951761,-0.00143198
0.61,0.00951045,-0.00144
0.615,0.00950325,-0.00144797
0.62,0.00949601,-0.00145589
0.625,0.00948873,-0.00146376
0.63,0.00948141,-0.00147158
0.635,0.00947406,-0.00147934
0.64,0.00946666,-0.00148706
0.645,0.00945922,-0.00149472
0.65,0.00945175,-0.00150234
0.655,0.00944424,-0.0015099
0.66,0.00943669,-0.00151742
0.665,0.0094291,-0.00152488
0.67,0.00942148,-0.0015323
0.675,0.00941382,-0.00153967
0.68,0.00940612,-0.00154698
0.685,0.00939838,-0.00155425
0.69,0.00939061,-0.00156147
0.695,0.00938281,-0.00156864
0.7,0.00937496,-0.00157577
0.705,0.00936708,-0.00158284
0.71,0.00935917,-0.00158987
0.715,0.00935122,-0.00159685
0.72,0.00934324,-0.00160378
0.725,0.00933522,-0.00161066
0.73,0.00932716,-0.0016175
0.735,0.00931908,-0.00162429
0.74,0.00931095,-0.00163103
0.745,0.0093028,-0.00163772
0.75,0.00929461,-0.00164437
0.755,0.00928639,-0.00165098
0.76,0.00927813,-0.00165753
0.765,0.00926985,-0.00166404
0.77,0.00926153,-0.00167051
0.775,0.00925317,-0.00167693
0.78,0.00924479,-0.0016833
0.785,0.00923637,-0.00168963
0.79,0.00922792,-0.00169591
0.795,0.00921944,-0.00170215
0.8,0.00921093,-0.00170834
0.805,0.00920239,-0.00171449
0.81,0.00919382,-0.0017206
0.815,0.00918522,-0.00172666
0.82,0.00917658,-0.00173267
0.825,0.00916792,-0.00173864
0.83,0.00915923,-0.00174457
0.835,0.0091505,-0.00175046
0.84,0.00914175,-0.0017563
0.845,0.00913297,-0.0017621
0.85,0.00912416,-0.00176785
0.855,0.00911532,-0.00177356
0.86,0.00910645,-0.00177923
0.865,0.00909756,-0.00178486
0.87,0.00908863,-0.00179045
0.875,0.00907968,-0.00179599
0.88,0.0090707,-0.00180149
0.885,0.00906169,-0.00180695
0.89,0.00905266,-0.00181236
0.895,0.0090436,-0.00181774
0.9,0.00903451,-0.00182307
0.905,0.00902539,-0.00182836
0.91,0.00901625,-0.00183362
0.915,0.00900708,-0.00183883
0.92,0.00899789,-0.001844
0.925,0.00898867,-0.00184913
0.93,0.00897942,-0.00185422
0.935,0.00897015,-0.00185926
0.94,0.00896085,-0.00186427
0.945,0.00895153,-0.00186924
0.95,0.00894219,-0.00187417
0.955,0.00893282,-0.00187906
0.96,0.00892342,-0.00188391
0.965,0.008914,-0.00188872
0.97,0.00890456,-0.00189349
0.975,0.00889509,-0.00189822
0.98,0.0088856,-0.00190292
0.985,0.00887608,-0.00190757
0.99,0.00886655,-0.00191219
0.995,0.00885699,-0.00191677
1,0.0088474,-0.00192131
1.005,0.0088378,-0.00192581
1.01,0.00882817,-0.00193027
1.015,0.00881852,-0.0019347
1.02,0.00880884,-0.00193909
1.025,0.00879915,-0.00194344
1.03,0.00878943,-0.00194775
1.035,0.00877969,-0.00195203
1.04,0.00876993,-0.00195627
1.045,0.00876015,-0.00196047
1.05,0.00875035,-0.00196464
1.055,0.00874052,-0.00196877
1.06,0.00873068,-0.00197286
1.065,0.00872082,-0.00197692
1.07,0.00871093,-0.00198094
1.075,0.00870103,-0.00198493
1.08,0.0086911,-0.00198888
1.085,0.00868116,-0.00199279
1.09,0.00867119,-0.00199667
1.095,0.00866121,-0.00200051
1.1,0.00865121,-0.00200432
1.105,0.00864119,-0.00200809
1.11,0.00863114,-0.00201183
1.115,0.00862109,-0.00201554
1.12,0.00861101,-0.0020192
1.125,0.00860091,-0.00202284
1.13,0.0085908,-0.00202644
1.135,0.00858067,-0.00203
1.14,0.00857052,-0.00203354
1.145,0.00856035,-0.00203703
1.15,0.00855016,-0.0020405
1.155,0.00853996,-0.00204393
1.16,0.00852974,-0.00204733
1.165,0.0085195,-0.00205069
1.17,0.00850925,-0.00205402
1.175,0.00849898,-0.00205732
1.18,0.00848869,-0.00206058
1.185,0.00847839,-0.00206381
1.19,0.00846807,-0.00206701
1.195,0.00845774,-0.00207018
1.2,0.00844739,-0.00207331
1.205,0.00843702,-0.00207642
1.21,0.00842664,-0.00207949
1.215,0.00841624,-0.00208252
1.22,0.00840583,-0.00208553
1.225,0.0083954,-0.0020885
1.23,0.00838496,-0.00209145
1.235,0.0083745,-0.00209436
1.24,0.00836403,-0.00209724
1.245,0.00835354,-0.00210009
1.25,0.00834304,-0.00210291
1.255,0.00833253,-0.00210569
1.26,0.008322,-0.00210845
1.265,0.00831146,-0.00211118
1.27,0.0083009,-0.00211387
1.275,0.00829033,-0.00211654
1.28,0.00827975,-0.00211917
1.285,0.00826915,-0.00212178
1.29,0.00825854,-0.00212435
1.295,0.00824792,-0.0021269
1.3,0.00823729,-0.00212941
1.305,0.00822664,-0.0021319
1.31,0.00821598,-0.00213435
1.315,0.00820531,-0.00213678
1.32,0.00819462,-0.00213918
1.325,0.00818393,-0.00214155
1.33,0.00817322,-0.00214389
1.335,0.0081625,-0.0021462
1.34,0.00815177,-0.00214848
1.345,0.00814103,-0.00215073
1.35,0.00813027,-0.00215296
1.355,0.00811951,-0.00215516
1.36,0.00810873,-0.00215733
1.365,0.00809795,-0.00215947
1.37,0.00808715,-0.00216158
1.375,0.00807634,-0.00216366
1.38,0.00806552,-0.00216572
1.385,0.0080547,-0.00216775
1.39,0.00804386,-0.00216975
1.395,0.00803301,-0.00217173
1.4,0.00802215,-0.00217368
1.405,0.00801128,-0.0021756
1.41,0.0080004,-0.00217749
1.415,0.00798952,-0.00217936
1.42,0.00797862,-0.0021812
1.425,0.00796771,-0.00218301
1.43,0.0079568,-0.0021848
1.435,0.00794587,-0.00218656
1.44,0.00793494,-0.00218829
1.445,0.007924,-0.00219
1.45,0.00791305,-0.00219168
1.455,0.00790209,-0.00219334
1.46,0.00789112,-0.00219497
1.465,0.00788015,-0.00219658
1.47,0.00786917,-0.00219815
1.475,0.00785818,-0.00219971
1.48,0.00784718,-0.00220124
1.485,0.00783617,-0.00220274
1.49,0.00782516,-0.00220422
1.495,0.00781414,-0.00220567
1.5,0.00780311,-0.0022071
1.505,0.00779207,-0.0022085
1.51,0.00778103,-0.00220988
1.515,0.00776998,-0.00221124
1.52,0.00775892,-0.00221257
1.525,0.00774786,-0.00221387
1.53,0.00773679,-0.00221515
1.535,0.00772572,-0.00221641
1.54,0.00771463,-0.00221764
1.545,0.00770355,-0.00221885
1.55,0.00769245,-0.00222004
1.555,0.00768135,-0.0022212
1.56,0.00767025,-0.00222234
1.565,0.00765913,-0.00222346
1.57,0.00764802,-0.00222455
1.575,0.00763689,-0.00222562
1.58,0.00762577,-0.00222666
1.585,0.00761463,-0.00222768
1.59,0.00760349,-0.00222868
1.595,0.00759235,-0.00222966
1.6,0.0075812,-0.00223062
1.605,0.00757005,-0.00223155
1.61,0.00755889,-0.00223246
1.615,0.00754773,-0.00223334
1.62,0.00753656,-0.00223421
1.625,0.00752539,-0.00223505
1.63,0.00751422,-0.00223587
1.635,0.00750304,-0.00223667
1.64,0.00749185,-0.00223744
1.645,0.00748067,-0.0022382
1.65,0.00746948,-0.00223893
1.655,0.00745828,-0.00223964
1.66,0.00744708,-0.00224033
1.665,0.00743588,-0.002241
1.67,0.00742468,-0.00224165
1.675,0.00741347,-0.00224228
1.68,0.00740226,-0.00224288
1.685,0.00739104,-0.00224347
1.69,0.00737982,-0.00224403
1.695,0.0073686,-0.00224457
1.7,0.00735738,-0.0022451
1.705,0.00734616,-0.0022456
1.71,0.00733493,-0.00224608
1.715,0.0073237,-0.00224654
1.72,0.00731246,-0.00224698
1.725,0.00730123,-0.0022474
1.73,0.00728999,-0.0022478
1.735,0.00727875,-0.00224818
1.74,0.00726751,-0.00224854
1.745,0.00725627,-0.00224888
1.75,0.00724503,-0.00224921
1.755,0.00723378,-0.00224951
1.76,0.00722253,-0.00224979
1.765,0.00721128,-0.00225005
1.77,0.00720003,-0.0022503
1.775,0.00718878,-0.00225052
1.78,0.00717753,-0.00225073
1.785,0.00716628,-0.00225091
1.79,0.00715502,-0.00225108
1.795,0.00714377,-0.00225123
1.8,0.00713251,-0.00225136
1.805,0.00712125,-0.00225147
1.81,0.00711,-0.00225156
1.815,0.00709874,-0.00225164
1.82,0.00708748,-0.00225169
1.825,0.00707622,-0.00225173
1.83,0.00706496,-0.00225175
1.835,0.0070537,-0.00225175
1.84,0.00704244,-0.00225174
1.845,0.00703119,-0.0022517
1.85,0.00701993,-0.00225165
1.855,0.00700867,-0.00225158
1.86,0.00699741,-0.00225149
1.865,0.00698615,-0.00225139
1.87,0.0069749,-0.00225127
1.875,0.00696364,-0.00225113
1.88,0.00695238,-0.00225097
1.885,0.00694113,-0.00225079
1.89,0.00692988,-0.0022506
1.895,0.00691862,-0.0022504
1.9,0.00690737,-0.00225017
1.905,0.00689612,-0.00224993
1.91,0.00688487,-0.00224967
1.915,0.00687362,-0.00224939
1.92,0.00686238,-0.0022491
1.925,0.00685113,-0.00224879
1.93,0.00683989,-0.00224847
1.935,0.00682864,-0.00224813
1.94,0.0068174,-0.00224777
1.945,0.00680616,-0.0022474
1.95,0.00679493,-0.00224701
1.955,0.00678369,-0.0022466
1.96,0.00677246,-0.00224618
1.965,0.00676123,-0.00224574
1.97,0.00675,-0.00224529
1.975,0.00673877,-0.00224482
1.98,0.00672755,-0.00224434
1.985,0.00671633,-0.00224384
1.99,0.00670511,-0.00224332
1.995,0.00669389,-0.00224279
2,0.00668268,-0.00224224
2.005,0.00667147,-0.00224168
2.01,0.00666026,-0.00224111
2.015,0.00664905,-0.00224052
2.02,0.00663785,-0.00223991
2.025,0.00662665,-0.00223929
2.03,0.00661545,-0.00223865
2.035,0.00660426,-0.002238
2.04,0.00659307,-0.00223734
2.045,0.00658188,-0.00223666
2.05,0.0065707,-0.00223596
2.055,0.00655952,-0.00223526
2.06,0.00654834,-0.00223453
2.065,0.00653717,-0.0022338
2.07,0.006526,-0.00223304
2.075,0.00651484,-0.00223228
2.08,0.00650368,-0.0022315
2.085,0.00649252,-0.00223071
2.09,0.00648136,-0.0022299
2.095,0.00647022,-0.00222908
2.1,0.00645907,-0.00222825
2.105,0.00644793,-0.0022274
2.11,0.00643679,-0.00222654
2.115,0.00642566,-0.00222566
2.12,0.00641453,-0.00222477
2.125,0.00640341,-0.00222387
2.13,0.00639229,-0.00222296
2.135,0.00638117,-0.00222203
2.14,0.00637006,-0.00222109
2.145,0.00635896,-0.00222013
2.15,0.00634786,-0.00221917
2.155,0.00633676,-0.00221819
2.16,0.00632567,-0.00221719
2.165,0.00631458,-0.00221619
2.17,0.0063035,-0.00221517
2.175,0.00629243,-0.00221414
2.18,0.00628136,-0.0022131
2.185,0.00627029,-0.00221204
2.19,0.00625923,-0.00221097
2.195,0.00624818,-0.00220989
2.2,0.00623713,-0.0022088
2.205,0.00622608,-0.00220769
2.21,0.00621504,-0.00220658
2.215,0.00620401,-0.00220545
2.22,0.00619298,-0.00220431
2.225,0.00618196,-0.00220315
2.23,0.00617095,-0.00220199
2.235,0.00615994,-0.00220081
2.24,0.00614893,-0.00219963
2.245,0.00613793,-0.00219843
2.25,0.00612694,-0.00219721
2.255,0.00611596,-0.00219599
2.26,0.00610498,-0.00219476
2.265,0.006094,-0.00219351
2.27,0.00608303,-0.00219226
2.275,0.00607207,-0.00219099
2.28,0.00606112,-0.00218971
2.285,0.00605017,-0.00218842
2.29,0.00603923,-0.00218712
2.295,0.00602829,-0.00218581
2.3,0.00601736,-0.00218448
2.305,0.00600644,-0.00218315
2.31,0.00599553,-0.0021818
2.315,0.00598462,-0.00218045
2.32,0.00597371,-0.00217908
2.325,0.00596282,-0.00217771
2.33,0.00595193,-0.00217632
2.335,0.00594105,-0.00217492
2.34,0.00593017,-0.00217351
2.345,0.00591931,-0.0021721
2.35,0.00590845,-0.00217067
2.355,0.00589759,-0.00216923
2.36,0.00588675,-0.00216778
2.365,0.00587591,-0.00216632
2.37,0.00586508,-0.00216485
2.375,0.00585425,-0.00216337
2.38,0.00584343,-0.00216189
2.385,0.00583263,-0.00216039
2.39,0.00582182,-0.00215888
2.395,0.00581103,-0.00215736
2.4,0.00580024,-0.00215583
2.405,0.00578946,-0.0021543
2.41,0.00577869,-0.00215275
2.415,0.00576793,-0.00215119
2.42,0.00575717,-0.00214963
2.425,0.00574642,-0.00214805
2.43,0.00573568,-0.00214647
2.435,0.00572495,-0.00214488
2.44,0.00571423,-0.00214327
2.445,0.00570351,-0.00214166
2.45,0.0056928,-0.00214004
2.455,0.0056821,-0.00213841
2.46,0.00567141,-0.00213677
2.465,0.00566073,-0.00213513
2.47,0.00565005,-0.00213347
2.475,0.00563938,-0.00213181
2.48,0.00562872,-0.00213013
2.485,0.00561807,-0.00212845
2.49,0.00560743,-0.00212676
2.495,0.0055968,-0.00212506
2.5,0.00558617,-0.00212335
2.505,0.00557555,-0.00212164
2.51,0.00556495,-0.00211991
2.515,0.00555435,-0.00211818
2.52,0.00554376,-0.00211644
2.525,0.00553317,-0.00211469
2.53,0.0055226,-0.00211293
2.535,0.00551204,-0.00211117
2.54,0.00550148,-0.00210939
2.545,0.00549093,-0.00210761
2.55,0.00548039,-0.00210582
2.555,0.00546987,-0.00210403
2.56,0.00545935,-0.00210222
2.565,0.00544883,-0.00210041
2.57,0.00543833,-0.00209859
2.575,0.00542784,-0.00209676
2.58,0.00541736,-0.00209492
2.585,0.00540688,-0.00209308
2.59,0.00539642,-0.00209123
2.595,0.00538596,-0.00208937
2.6,0.00537551,-0.00208751
2.605,0.00536508,-0.00208563
2.61,0.00535465,-0.00208375
2.615,0.00534423,-0.00208187
2.62,0.00533382,-0.00207997
2.625,0.00532342,-0.00207807
2.63,0.00531303,-0.00207616
2.635,0.00530265,-0.00207425
2.64,0.00529228,-0.00207232
2.645,0.00528192,-0.00207039
2.65,0.00527156,-0.00206846
2.655,0.00526122,-0.00206651
2.66,0.00525089,-0.00206456
2.665,0.00524057,-0.00206261
2.67,0.00523025,-0.00206064
2.675,0.00521995,-0.00205867
2.68,0.00520966,-0.0020567
2.685,0.00519937,-0.00205471
2.69,0.0051891,-0.00205272
2.695,0.00517884,-0.00205073
2.7,0.00516858,-0.00204872
2.705,0.00515834,-0.00204671
2.71,0.0051481,-0.0020447
2.715,0.00513788,-0.00204268
2.72,0.00512767,-0.00204065
2.725,0.00511746,-0.00203862
2.73,0.00510727,-0.00203658
2.735,0.00509709,-0.00203453
2.74,0.00508692,-0.00203248
2.745,0.00507675,-0.00203042
2.75,0.0050666,-0.00202836
2.755,0.00505646,-0.00202629
2.76,0.00504633,-0.00202421
2.765,0.00503621,-0.00202213
2.77,0.0050261,-0.00202004
2.775,0.005016,-0.00201795
2.78,0.00500591,-0.00201585
2.785,0.00499583,-0.00201375
2.79,0.00498576,-0.00201164
2.795,0.0049757,-0.00200952
2.8,0.00496565,-0.0020074
2.805,0.00495562,-0.00200528
2.81,0.00494559,-0.00200315
2.815,0.00493557,-0.00200101
2.82,0.00492557,-0.00199887
2.825,0.00491557,-0.00199672
2.83,0.00490559,-0.00199457
2.835,0.00489562,-0.00199241
2.84,0.00488566,-0.00199025
2.845,0.0048757,-0.00198808
2.85,0.00486576,-0.00198591
2.855,0.00485583,-0.00198373
2.86,0.00484592,-0.00198155
2.865,0.00483601,-0.00197936
2.87,0.00482611,-0.00197717
2.875,0.00481623,-0.00197497
2.88,0.00480635,-0.00197277
2.885,0.00479649,-0.00197056
2.89,0.00478663,-0.00196835
2.895,0.00477679,-0.00196613
2.9,0.00476696,-0.00196391
2.905,0.00475714,-0.00196169
2.91,0.00474733,-0.00195946
2.915,0.00473754,-0.00195722
2.92,0.00472775,-0.00195498
2.925,0.00471798,-0.00195274
2.93,0.00470821,-0.00195049
2.935,0.00469846,-0.00194824
2.94,0.00468872,-0.00194598
2.945,0.00467899,-0.00194372
2.95,0.00466927,-0.00194146
2.955,0.00465956,-0.00193919
2.96,0.00464987,-0.00193692
2.965,0.00464018,-0.00193464
2.97,0.00463051,-0.00193236
2.975,0.00462085,-0.00193007
2.98,0.0046112,-0.00192778
2.985,0.00460156,-0.00192549
2.99,0.00459193,-0.00192319
2.995,0.00458231,-0.00192089
3,0.00457271,-0.00191859
3.005,0.00456312,-0.00191628
3.01,0.00455353,-0.00191397
3.015,0.00454397,-0.00191165
3.02,0.00453441,-0.00190933
3.025,0.00452486,-0.00190701
3.03,0.00451533,-0.00190468
3.035,0.0045058,-0.00190235
3.04,0.00449629,-0.00190002
3.045,0.00448679,-0.00189768
3.05,0.0044773,-0.00189534
3.055,0.00446782,-0.00189299
3.06,0.00445836,-0.00189065
3.065,0.00444891,-0.0018883
3.07,0.00443947,-0.00188594
3.075,0.00443004,-0.00188358
3.08,0.00442062,-0.00188122
3.085,0.00441121,-0.00187886
3.09,0.00440182,-0.00187649
3.095,0.00439243,-0.00187412
3.1,0.00438306,-0.00187175
3.105,0.00437371,-0.00186937
3.11,0.00436436,-0.00186699
3.115,0.00435502,-0.00186461
3.12,0.0043457,-0.00186222
3.125,0.00433639,-0.00185983
3.13,0.00432709,-0.00185744
3.135,0.0043178,-0.00185505
3.14,0.00430853,-0.00185265
3.145,0.00429926,-0.00185025
3.15,0.00429001,-0.00184785
3.155,0.00428077,-0.00184544
3.16,0.00427155,-0.00184303
3.165,0.00426233,-0.00184062
3.17,0.00425313,-0.00183821
3.175,0.00424394,-0.00183579
3.18,0.00423476,-0.00183337
3.185,0.00422559,-0.00183095
3.19,0.00421644,-0.00182853
3.195,0.00420729,-0.0018261
3.2,0.00419816,-0.00182367
3.205,0.00418905,-0.00182124
3.21,0.00417994,-0.00181881
3.215,0.00417085,-0.00181637
3.22,0.00416176,-0.00181394
3.225,0.00415269,-0.0018115
3.23,0.00414364,-0.00180905
3.235,0.00413459,-0.00180661
3.24,0.00412556,-0.00180416
3.245,0.00411654,-0.00180171
3.25,0.00410753,-0.00179926
3.255,0.00409853,-0.00179681
3.26,0.00408955,-0.00179435
3.265,0.00408058,-0.00179189
3.27,0.00407162,-0.00178943
3.275,0.00406267,-0.00178697
3.28,0.00405373,-0.00178451
3.285,0.00404481,-0.00178204
3.29,0.0040359,-0.00177958
3.295,0.004027,-0.00177711
3.3,0.00401812,-0.00177464
3.305,0.00400925,-0.00177216
3.31,0.00400038,-0.00176969
3.315,0.00399154,-0.00176721
3.32,0.0039827,-0.00176473
3.325,0.00397388,-0.00176225
3.33,0.00396507,-0.00175977
3.335,0.00395627,-0.00175729
3.34,0.00394748,-0.0017548
3.345,0.00393871,-0.00175232
3.35,0.00392994,-0.00174983
3.355,0.0039212,-0.00174734
3.36,0.00391246,-0.00174485
3.365,0.00390373,-0.00174236
3.37,0.00389502,-0.00173986
3.375,0.00388632,-0.00173737
3.38,0.00387764,-0.00173487
3.385,0.00386896,-0.00173237
3.39,0.0038603,-0.00172987
3.395,0.00385165,-0.00172737
3.4,0.00384301,-0.00172487
3.405,0.00383439,-0.00172237
3.41,0.00382578,-0.00171986
3.415,0.00381718,-0.00171736
3.42,0.00380859,-0.00171485
3.425,0.00380002,-0.00171234
3.43,0.00379146,-0.00170983
3.435,0.00378291,-0.00170732
3.44,0.00377437,-0.00170481
3.445,0.00376585,-0.0017023
3.45,0.00375733,-0.00169979
3.455,0.00374884,-0.00169727
3.46,0.00374035,-0.00169476
3.465,0.00373188,-0.00169224
3.47,0.00372341,-0.00168972
3.475,0.00371497,-0.00168721
3.48,0.00370653,-0.00168469
3.485,0.00369811,-0.00168217
3.49,0.00368969,-0.00167965
3.495,0.0036813,-0.00167712
3.5,0.00367291,-0.0016746
3.505,0.00366454,-0.00167208
3.51,0.00365618,-0.00166956
3.515,0.00364783,-0.00166703
3.52,0.00363949,-0.00166451
